# radius 	 R 
2.000000 	 1.500000 
3.000000 	 1.000000 
4.000000 	 0.750000 
5.000000 	 0.600000 
6.000000 	 0.500000 
7.000000 	 0.428571 
8.000000 	 0.375000 
9.000000 	 0.333333 
10.000000 	 0.300000 
11.000000 	 0.272727 
12.000000 	 0.250000 
13.000000 	 0.230769 
14.000000 	 0.214286 
15.000000 	 0.200000 
16.000000 	 0.187500 
17.000000 	 0.176471 
18.000000 	 0.166667 
19.000000 	 0.157895 
20.000000 	 0.150000 
